# Percentage points of $\barR^*$ for the Fisher distribution.

# For given $n$, $\alpha$ and $\kappa$, the tabulated values $\barR^*_\alpha$ are the $100\alpha$ percent points of $\barR^*$, where $\barR^*=(1/n)\sum^n_{i=1}{cos theta_i}, and $(\theta_1, \phi_1),...,(\theta_n, \phi_n)$ are independent observations from a Fisher F{0,k} distribution; that is, Prob($\barR^*\ge\barR^*_\alpha)=\alpha$. 

# These values are those for which $\alpha = 0.05$. Taken from Statistical Analysis of Spherical Data, 1987, Appendix A11.

#   0.0    0.5    1.0    1.5    2.0    2.5    3.0    3.5    4.0    4.5    5.0
4   0.4767 0.6148 0.7177 0.7873 0.8334 0.8645 0.8865 0.9025 0.9146 0.9241 0.9317
5   0.4261 0.5679 0.6782 0.7558 0.8082 0.8439 0.8691 0.8875 0.9015 0.9124 0.9212
6   0.3887 0.5334 0.6482 0.7312 0.7883 0.8276 0.8554 0.8757 0.8911 0.9032 0.9129
7   0.3597 0.5066 0.6246 0.7115 0.7722 0.8143 0.8442 0.8661 0.8827 0.8957 0.9061
8   0.3364 0.4848 0.6054 0.6953 0.7588 0.8032 0.8348 0.8580 0.8757 0.8894 0.9005
9   0.3171 0.4669 0.5894 0.6817 0.7475 0.7938 0.8269 0.8512 0.8697 0.8841 0.8957
10  0.3008 0.4517 0.5758 0.6700 0.7378 0.7857 0.8200 0.8452 0.8644 0.8795 0.8915
12  0.2745 0.4267 0.5538 0.6510 0.7218 0.7723 0.8086 0.8354 0.8558 0.8718 0.8846
16  0.238  0.392  0.522  0.624  0.699  0.753  0.792  0.821  0.843  0.861  0.875
20  0.212  0.368  0.501  0.605  0.683  0.739  0.780  0.811  0.834  0.853  0.867
30  0.174  0.331  0.467  0.576  0.657  0.717  0.762  0.795  0.820  0.840  0.856
40  0.150  0.309  0.447  0.558  0.642  0.704  0.750  0.785  0.811  0.832  0.849
60  0.122  0.283  0.423  0.536  0.623  0.688  0.737  0.773  0.801  0.823  0.841
100 0.175  0.256  0.398  0.515  0.604  0.672  0.722  0.761  0.790  0.813  0.832

inf 0.000  0.164  0.313  0.438  0.537  0.613  0.672  0.716  0.751  0.778  0.800
